Theta: 90.000000
	0.000100, 89.999996, 89.999996, -0.088290
	0.000200, 89.999982, 89.999982, -0.176580
	0.000300, 89.999960, 89.999960, -0.264870
	0.000400, 89.999929, 89.999929, -0.353160
	0.000500, 89.999890, 89.999890, -0.441450
	0.000600, 89.999841, 89.999841, -0.529740
	0.000700, 89.999784, 89.999784, -0.618030
	0.000800, 89.999717, 89.999717, -0.706319
	0.000900, 89.999642, 89.999642, -0.794609
	0.001000, 89.999559, 89.999559, -0.882899
	0.001100, 89.999466, 89.999466, -0.971188
	0.001200, 89.999364, 89.999364, -1.059478
	0.001300, 89.999254, 89.999254, -1.147767
	0.001400, 89.999135, 89.999135, -1.236056
	0.001500, 89.999007, 89.999007, -1.324345
	0.001600, 89.998870, 89.998870, -1.412634
	0.001700, 89.998724, 89.998724, -1.500923
	0.001800, 89.998570, 89.998570, -1.589212
	0.001900, 89.998406, 89.998406, -1.677500
	0.002000, 89.998234, 89.998234, -1.765788
	0.002100, 89.998053, 89.998053, -1.854077
	0.002200, 89.997863, 89.997863, -1.942365
	0.002300, 89.997665, 89.997665, -2.030652
	0.002400, 89.997457, 89.997457, -2.118940
	0.002500, 89.997241, 89.997241, -2.207227
	0.002600, 89.997016, 89.997016, -2.295515
	0.002700, 89.996782, 89.996782, -2.383802
	0.002800, 89.996539, 89.996539, -2.472088
	0.002900, 89.996287, 89.996287, -2.560375
	0.003000, 89.996027, 89.996027, -2.648661
	0.003100, 89.995758, 89.995758, -2.736947
	0.003200, 89.995480, 89.995480, -2.825233
	0.003300, 89.995193, 89.995193, -2.913518
	0.003400, 89.994897, 89.994897, -3.001803
	0.003500, 89.994592, 89.994592, -3.090088
	0.003600, 89.994279, 89.994279, -3.178373
	0.003700, 89.993957, 89.993957, -3.266657
	0.003800, 89.993626, 89.993626, -3.354941
	0.003900, 89.993286, 89.993286, -3.443224
	0.004000, 89.992937, 89.992937, -3.531508
	0.004100, 89.992579, 89.992579, -3.619791
	0.004200, 89.992213, 89.992213, -3.708073
	0.004300, 89.991838, 89.991838, -3.796355
	0.004400, 89.991454, 89.991454, -3.884637
	0.004500, 89.991061, 89.991061, -3.972918
	0.004600, 89.990659, 89.990659, -4.061199
	0.004700, 89.990249, 89.990249, -4.149480
	0.004800, 89.989829, 89.989829, -4.237760
	0.004900, 89.989401, 89.989401, -4.326040
	0.005000, 89.988964, 89.988964, -4.414320
	0.005100, 89.988518, 89.988518, -4.502599
	0.005200, 89.988063, 89.988063, -4.590877
	0.005300, 89.987600, 89.987600, -4.679155
	0.005400, 89.987128, 89.987128, -4.767433
	0.005500, 89.986646, 89.986646, -4.855710
	0.005600, 89.986156, 89.986156, -4.943986
	0.005700, 89.985658, 89.985658, -5.032263
	0.005800, 89.985150, 89.985150, -5.120538
	0.005900, 89.984634, 89.984634, -5.208814
	0.006000, 89.984108, 89.984108, -5.297088
	0.006100, 89.983574, 89.983574, -5.385362
	0.006200, 89.983031, 89.983031, -5.473636
	0.006300, 89.982479, 89.982479, -5.561909
	0.006400, 89.981919, 89.981919, -5.650182
	0.006500, 89.981349, 89.981349, -5.738454
	0.006600, 89.980771, 89.980771, -5.826725
	0.006700, 89.980184, 89.980184, -5.914996
	0.006800, 89.979588, 89.979588, -6.003266
	0.006900, 89.978983, 89.978983, -6.091536
	0.007000, 89.978370, 89.978370, -6.179805
	0.007100, 89.977747, 89.977747, -6.268073
	0.007200, 89.977116, 89.977116, -6.356341
	0.007300, 89.976476, 89.976476, -6.444608
	0.007400, 89.975827, 89.975827, -6.532875
	0.007500, 89.975170, 89.975170, -6.621141
	0.007600, 89.974503, 89.974503, -6.709406
	0.007700, 89.973828, 89.973828, -6.797671
	0.007800, 89.973144, 89.973144, -6.885935
	0.007900, 89.972451, 89.972451, -6.974198
	0.008000, 89.971749, 89.971749, -7.062461
	0.008100, 89.971038, 89.971038, -7.150723
	0.008200, 89.970319, 89.970319, -7.238984
	0.008300, 89.969590, 89.969590, -7.327245
	0.008400, 89.968853, 89.968853, -7.415504
	0.008500, 89.968107, 89.968107, -7.503764
	0.008600, 89.967352, 89.967352, -7.592022
	0.008700, 89.966589, 89.966589, -7.680279
	0.008800, 89.965816, 89.965816, -7.768536
	0.008900, 89.965035, 89.965035, -7.856792
	0.009000, 89.964245, 89.964245, -7.945048
	0.009100, 89.963446, 89.963446, -8.033302
	0.009200, 89.962638, 89.962638, -8.121556
	0.009300, 89.961822, 89.961822, -8.209809
	0.009400, 89.960996, 89.960996, -8.298061
	0.009500, 89.960162, 89.960162, -8.386312
	0.009600, 89.959319, 89.959319, -8.474563
	0.009700, 89.958467, 89.958467, -8.562813
	0.009800, 89.957606, 89.957606, -8.651061
	0.009900, 89.956737, 89.956737, -8.739309
	0.010000, 89.955859, 89.955859, -8.827557
	0.010100, 89.954971, 89.954971, -8.915803
	0.010200, 89.954075, 89.954075, -9.004048
	0.010300, 89.953171, 89.953171, -9.092293
	0.010400, 89.952257, 89.952257, -9.180536
	0.010500, 89.951335, 89.951335, -9.268779
	0.010600, 89.950403, 89.950403, -9.357021
	0.010700, 89.949463, 89.949463, -9.445262
	0.010800, 89.948514, 89.948514, -9.533502
	0.010900, 89.947556, 89.947556, -9.621741
	0.011000, 89.946590, 89.946590, -9.709979
	0.011100, 89.945614, 89.945614, -9.798216
	0.011200, 89.944630, 89.944630, -9.886452
	0.011300, 89.943637, 89.943637, -9.974687
	0.011400, 89.942635, 89.942635, -10.062921
	0.011500, 89.941625, 89.941625, -10.151155
	0.011600, 89.940605, 89.940605, -10.239387
	0.011700, 89.939577, 89.939577, -10.327618
	0.011800, 89.938539, 89.938539, -10.415848
	0.011900, 89.937494, 89.937494, -10.504078
	0.012000, 89.936439, 89.936439, -10.592306
	0.012100, 89.935375, 89.935375, -10.680533
	0.012200, 89.934303, 89.934303, -10.768759
	0.012300, 89.933221, 89.933221, -10.856984
	0.012400, 89.932131, 89.932131, -10.945208
	0.012500, 89.931032, 89.931032, -11.033431
	0.012600, 89.929924, 89.929924, -11.121653
	0.012700, 89.928808, 89.928808, -11.209873
	0.012800, 89.927683, 89.927683, -11.298093
	0.012900, 89.926548, 89.926548, -11.386311
	0.013000, 89.925405, 89.925405, -11.474529
	0.013100, 89.924253, 89.924253, -11.562745
	0.013200, 89.923093, 89.923093, -11.650960
	0.013300, 89.921923, 89.921923, -11.739174
	0.013400, 89.920745, 89.920745, -11.827387
	0.013500, 89.919558, 89.919558, -11.915599
	0.013600, 89.918362, 89.918362, -12.003809
	0.013700, 89.917157, 89.917157, -12.092018
	0.013800, 89.915943, 89.915943, -12.180227
	0.013900, 89.914721, 89.914721, -12.268434
	0.014000, 89.913490, 89.913490, -12.356639
	0.014100, 89.912250, 89.912250, -12.444844
	0.014200, 89.911001, 89.911001, -12.533047
	0.014300, 89.909743, 89.909743, -12.621249
	0.014400, 89.908476, 89.908476, -12.709450
	0.014500, 89.907201, 89.907201, -12.797650
	0.014600, 89.905917, 89.905917, -12.885848
	0.014700, 89.904624, 89.904624, -12.974045
	0.014800, 89.903322, 89.903322, -13.062241
	0.014900, 89.902011, 89.902011, -13.150435
	0.015000, 89.900692, 89.900692, -13.238629
	0.015100, 89.899364, 89.899364, -13.326821
	0.015200, 89.898027, 89.898027, -13.415011
	0.015300, 89.896681, 89.896681, -13.503200
	0.015400, 89.895326, 89.895326, -13.591388
	0.015500, 89.893962, 89.893962, -13.679575
	0.015600, 89.892590, 89.892590, -13.767760
	0.015700, 89.891209, 89.891209, -13.855944
	0.015800, 89.889819, 89.889819, -13.944127
	0.015900, 89.888420, 89.888420, -14.032308
	0.016000, 89.887012, 89.887012, -14.120488
	0.016100, 89.885596, 89.885596, -14.208666
	0.016200, 89.884171, 89.884171, -14.296844
	0.016300, 89.882737, 89.882737, -14.385019
	0.016400, 89.881294, 89.881294, -14.473193
	0.016500, 89.879842, 89.879842, -14.561366
	0.016600, 89.878381, 89.878381, -14.649538
	0.016700, 89.876912, 89.876912, -14.737708
	0.016800, 89.875434, 89.875434, -14.825876
	0.016900, 89.873947, 89.873947, -14.914043
	0.017000, 89.872451, 89.872451, -15.002209
	0.017100, 89.870946, 89.870946, -15.090373
	0.017200, 89.869433, 89.869433, -15.178536
	0.017300, 89.867911, 89.867911, -15.266697
	0.017400, 89.866380, 89.866380, -15.354857
	0.017500, 89.864840, 89.864840, -15.443015
	0.017600, 89.863291, 89.863291, -15.531171
	0.017700, 89.861734, 89.861734, -15.619326
	0.017800, 89.860167, 89.860167, -15.707480
	0.017900, 89.858592, 89.858592, -15.795632
	0.018000, 89.857008, 89.857008, -15.883783
	0.018100, 89.855415, 89.855415, -15.971932
	0.018200, 89.853814, 89.853814, -16.060079
	0.018300, 89.852203, 89.852203, -16.148225
	0.018400, 89.850584, 89.850584, -16.236369
	0.018500, 89.848956, 89.848956, -16.324512
	0.018600, 89.847319, 89.847319, -16.412653
	0.018700, 89.845673, 89.845673, -16.500792
	0.018800, 89.844019, 89.844019, -16.588930
	0.018900, 89.842356, 89.842356, -16.677066
	0.019000, 89.840684, 89.840684, -16.765201
	0.019100, 89.839003, 89.839003, -16.853333
	0.019200, 89.837313, 89.837313, -16.941465
	0.019300, 89.835614, 89.835614, -17.029594
	0.019400, 89.833907, 89.833907, -17.117722
	0.019500, 89.832191, 89.832191, -17.205848
	0.019600, 89.830466, 89.830466, -17.293973
	0.019700, 89.828732, 89.828732, -17.382096
	0.019800, 89.826989, 89.826989, -17.470217
	0.019900, 89.825238, 89.825238, -17.558336
	0.020000, 89.823478, 89.823478, -17.646454
	0.020100, 89.821709, 89.821709, -17.734570
	0.020200, 89.819931, 89.819931, -17.822684
	0.020300, 89.818144, 89.818144, -17.910797
	0.020400, 89.816349, 89.816349, -17.998907
	0.020500, 89.814544, 89.814544, -18.087016
	0.020600, 89.812731, 89.812731, -18.175123
	0.020700, 89.810909, 89.810909, -18.263229
	0.020800, 89.809079, 89.809079, -18.351332
	0.020900, 89.807239, 89.807239, -18.439434
	0.021000, 89.805391, 89.805391, -18.527534
	0.021100, 89.803534, 89.803534, -18.615632
	0.021200, 89.801668, 89.801668, -18.703729
	0.021300, 89.799793, 89.799793, -18.791823
	0.021400, 89.797909, 89.797909, -18.879916
	0.021500, 89.796017, 89.796017, -18.968007
	0.021600, 89.794116, 89.794116, -19.056096
	0.021700, 89.792206, 89.792206, -19.144183
	0.021800, 89.790287, 89.790287, -19.232268
	0.021900, 89.788359, 89.788359, -19.320351
	0.022000, 89.786423, 89.786423, -19.408433
	0.022100, 89.784477, 89.784477, -19.496512
	0.022200, 89.782523, 89.782523, -19.584590
	0.022300, 89.780561, 89.780561, -19.672666
	0.022400, 89.778589, 89.778589, -19.760739
	0.022500, 89.776608, 89.776608, -19.848811
	0.022600, 89.774619, 89.774619, -19.936881
	0.022700, 89.772621, 89.772621, -20.024949
	0.022800, 89.770614, 89.770614, -20.113015
	0.022900, 89.768598, 89.768598, -20.201079
	0.023000, 89.766574, 89.766574, -20.289141
	0.023100, 89.764541, 89.764541, -20.377201
	0.023200, 89.762498, 89.762498, -20.465259
	0.023300, 89.760448, 89.760448, -20.553315
	0.023400, 89.758388, 89.758388, -20.641369
	0.023500, 89.756319, 89.756319, -20.729421
	0.023600, 89.754242, 89.754242, -20.817471
	0.023700, 89.752156, 89.752156, -20.905519
	0.023800, 89.750061, 89.750061, -20.993565
	0.023900, 89.747957, 89.747957, -21.081608
	0.024000, 89.745845, 89.745845, -21.169650
	0.024100, 89.743723, 89.743723, -21.257690
	0.024200, 89.741593, 89.741593, -21.345727
	0.024300, 89.739454, 89.739454, -21.433763
	0.024400, 89.737306, 89.737306, -21.521796
	0.024500, 89.735150, 89.735150, -21.609827
	0.024600, 89.732984, 89.732984, -21.697856
	0.024700, 89.730810, 89.730810, -21.785883
	0.024800, 89.728627, 89.728627, -21.873908
	0.024900, 89.726435, 89.726435, -21.961931
	0.025000, 89.724235, 89.724235, -22.049952
	0.025100, 89.722025, 89.722025, -22.137970
	0.025200, 89.719807, 89.719807, -22.225986
	0.025300, 89.717580, 89.717580, -22.314000
	0.025400, 89.715344, 89.715344, -22.402012
	0.025500, 89.713100, 89.713100, -22.490022
	0.025600, 89.710846, 89.710846, -22.578029
	0.025700, 89.708584, 89.708584, -22.666034
	0.025800, 89.706313, 89.706313, -22.754037
	0.025900, 89.704033, 89.704033, -22.842038
	0.026000, 89.701745, 89.701745, -22.930037
	0.026100, 89.699447, 89.699447, -23.018033
	0.026200, 89.697141, 89.697141, -23.106027
	0.026300, 89.694826, 89.694826, -23.194019
	0.026400, 89.692502, 89.692502, -23.282008
	0.026500, 89.690170, 89.690170, -23.369995
	0.026600, 89.687828, 89.687828, -23.457980
	0.026700, 89.685478, 89.685478, -23.545963
	0.026800, 89.683119, 89.683119, -23.633943
	0.026900, 89.680751, 89.680751, -23.721921
	0.027000, 89.678375, 89.678375, -23.809897
	0.027100, 89.675989, 89.675989, -23.897870
	0.027200, 89.673595, 89.673595, -23.985841
	0.027300, 89.671192, 89.671192, -24.073810
	0.027400, 89.668780, 89.668780, -24.161776
	0.027500, 89.666360, 89.666360, -24.249740
	0.027600, 89.663930, 89.663930, -24.337701
	0.027700, 89.661492, 89.661492, -24.425661
	0.027800, 89.659045, 89.659045, -24.513617
	0.027900, 89.656590, 89.656590, -24.601572
	0.028000, 89.654125, 89.654125, -24.689524
	0.028100, 89.651652, 89.651652, -24.777473
	0.028200, 89.649169, 89.649169, -24.865420
	0.028300, 89.646679, 89.646679, -24.953365
	0.028400, 89.644179, 89.644179, -25.041307
	0.028500, 89.641670, 89.641670, -25.129247
	0.028600, 89.639153, 89.639153, -25.217184
	0.028700, 89.636627, 89.636627, -25.305119
	0.028800, 89.634092, 89.634092, -25.393051
	0.028900, 89.631548, 89.631548, -25.480981
	0.029000, 89.628996, 89.628996, -25.568908
	0.029100, 89.626434, 89.626434, -25.656833
	0.029200, 89.623864, 89.623864, -25.744755
	0.029300, 89.621285, 89.621285, -25.832675
	0.029400, 89.618698, 89.618698, -25.920592
	0.029500, 89.616101, 89.616101, -26.008507
	0.029600, 89.613496, 89.613496, -26.096419
	0.029700, 89.610882, 89.610882, -26.184328
	0.029800, 89.608259, 89.608259, -26.272235
	0.029900, 89.605628, 89.605628, -26.360140
	0.030000, 89.602987, 89.602987, -26.448042
	0.030100, 89.600338, 89.600338, -26.535941
	0.030200, 89.597680, 89.597680, -26.623837
	0.030300, 89.595013, 89.595013, -26.711731
	0.030400, 89.592338, 89.592338, -26.799623
	0.030500, 89.589653, 89.589653, -26.887512
	0.030600, 89.586960, 89.586960, -26.975398
	0.030700, 89.584258, 89.584258, -27.063281
	0.030800, 89.581548, 89.581548, -27.151162
	0.030900, 89.578828, 89.578828, -27.239040
	0.031000, 89.576100, 89.576100, -27.326916
	0.031100, 89.573363, 89.573363, -27.414789
	0.031200, 89.570617, 89.570617, -27.502659
	0.031300, 89.567862, 89.567862, -27.590526
	0.031400, 89.565099, 89.565099, -27.678391
	0.031500, 89.562326, 89.562326, -27.766253
	0.031600, 89.559545, 89.559545, -27.854112
	0.031700, 89.556756, 89.556756, -27.941969
	0.031800, 89.553957, 89.553957, -28.029822
	0.031900, 89.551150, 89.551150, -28.117673
	0.032000, 89.548333, 89.548333, -28.205522
	0.032100, 89.545509, 89.545509, -28.293367
	0.032200, 89.542675, 89.542675, -28.381210
	0.032300, 89.539832, 89.539832, -28.469050
	0.032400, 89.536981, 89.536981, -28.556887
	0.032500, 89.534121, 89.534121, -28.644722
	0.032600, 89.531252, 89.531252, -28.732553
	0.032700, 89.528374, 89.528374, -28.820382
	0.032800, 89.525488, 89.525488, -28.908208
	0.032900, 89.522593, 89.522593, -28.996031
	0.033000, 89.519689, 89.519689, -29.083851
	0.033100, 89.516776, 89.516776, -29.171669
	0.033200, 89.513854, 89.513854, -29.259483
	0.033300, 89.510924, 89.510924, -29.347295
	0.033400, 89.507985, 89.507985, -29.435103
	0.033500, 89.505037, 89.505037, -29.522909
	0.033600, 89.502080, 89.502080, -29.610712
	0.033700, 89.499115, 89.499115, -29.698512
	0.033800, 89.496141, 89.496141, -29.786310
	0.033900, 89.493158, 89.493158, -29.874104
	0.034000, 89.490166, 89.490166, -29.961895
	0.034100, 89.487165, 89.487165, -30.049684
	0.034200, 89.484156, 89.484156, -30.137469
	0.034300, 89.481138, 89.481138, -30.225251
	0.034400, 89.478111, 89.478111, -30.313031
	0.034500, 89.475075, 89.475075, -30.400808
	0.034600, 89.472031, 89.472031, -30.488581
	0.034700, 89.468977, 89.468977, -30.576352
	0.034800, 89.465915, 89.465915, -30.664119
	0.034900, 89.462845, 89.462845, -30.751884
	0.035000, 89.459765, 89.459765, -30.839645
	0.035100, 89.456677, 89.456677, -30.927404
	0.035200, 89.453580, 89.453580, -31.015159
	0.035300, 89.450474, 89.450474, -31.102912
	0.035400, 89.447359, 89.447359, -31.190661
	0.035500, 89.444236, 89.444236, -31.278407
	0.035600, 89.441103, 89.441103, -31.366151
	0.035700, 89.437962, 89.437962, -31.453891
	0.035800, 89.434813, 89.434813, -31.541628
	0.035900, 89.431654, 89.431654, -31.629362
	0.036000, 89.428487, 89.428487, -31.717093
	0.036100, 89.425311, 89.425311, -31.804821
	0.036200, 89.422126, 89.422126, -31.892545
	0.036300, 89.418932, 89.418932, -31.980267
	0.036400, 89.415730, 89.415730, -32.067985
	0.036500, 89.412518, 89.412518, -32.155701
	0.036600, 89.409299, 89.409299, -32.243413
	0.036700, 89.406070, 89.406070, -32.331122
	0.036800, 89.402832, 89.402832, -32.418827
	0.036900, 89.399586, 89.399586, -32.506530
	0.037000, 89.396331, 89.396331, -32.594229
	0.037100, 89.393067, 89.393067, -32.681926
	0.037200, 89.389795, 89.389795, -32.769619
	0.037300, 89.386513, 89.386513, -32.857308
	0.037400, 89.383223, 89.383223, -32.944995
	0.037500, 89.379924, 89.379924, -33.032678
	0.037600, 89.376617, 89.376617, -33.120358
	0.037700, 89.373300, 89.373300, -33.208035
	0.037800, 89.369975, 89.369975, -33.295709
	0.037900, 89.366641, 89.366641, -33.383379
	0.038000, 89.363298, 89.363298, -33.471046
	0.038100, 89.359947, 89.359947, -33.558710
	0.038200, 89.356587, 89.356587, -33.646370
	0.038300, 89.353218, 89.353218, -33.734027
	0.038400, 89.349840, 89.349840, -33.821681
	0.038500, 89.346453, 89.346453, -33.909332
	0.038600, 89.343058, 89.343058, -33.996979
	0.038700, 89.339654, 89.339654, -34.084623
	0.038800, 89.336241, 89.336241, -34.172263
	0.038900, 89.332819, 89.332819, -34.259901
	0.039000, 89.329389, 89.329389, -34.347534
	0.039100, 89.325950, 89.325950, -34.435165
	0.039200, 89.322502, 89.322502, -34.522792
	0.039300, 89.319045, 89.319045, -34.610416
	0.039400, 89.315580, 89.315580, -34.698036
	0.039500, 89.312106, 89.312106, -34.785653
	0.039600, 89.308623, 89.308623, -34.873266
	0.039700, 89.305131, 89.305131, -34.960876
	0.039800, 89.301631, 89.301631, -35.048483
	0.039900, 89.298121, 89.298121, -35.136086
	0.040000, 89.294603, 89.294603, -35.223686
	0.040100, 89.291077, 89.291077, -35.311282
	0.040200, 89.287541, 89.287541, -35.398875
	0.040300, 89.283997, 89.283997, -35.486464
	0.040400, 89.280444, 89.280444, -35.574050
	0.040500, 89.276882, 89.276882, -35.661632
	0.040600, 89.273312, 89.273312, -35.749211
	0.040700, 89.269732, 89.269732, -35.836787
	0.040800, 89.266144, 89.266144, -35.924359
	0.040900, 89.262547, 89.262547, -36.011927
	0.041000, 89.258942, 89.258942, -36.099492
	0.041100, 89.255327, 89.255327, -36.187053
	0.041200, 89.251704, 89.251704, -36.274611
	0.041300, 89.248073, 89.248073, -36.362165
	0.041400, 89.244432, 89.244432, -36.449715
	0.041500, 89.240783, 89.240783, -36.537262
	0.041600, 89.237124, 89.237124, -36.624806
	0.041700, 89.233458, 89.233458, -36.712346
	0.041800, 89.229782, 89.229782, -36.799882
	0.041900, 89.226098, 89.226098, -36.887414
	0.042000, 89.222405, 89.222405, -36.974943
	0.042100, 89.218703, 89.218703, -37.062469
	0.042200, 89.214992, 89.214992, -37.149990
	0.042300, 89.211273, 89.211273, -37.237509
	0.042400, 89.207545, 89.207545, -37.325023
	0.042500, 89.203808, 89.203808, -37.412534
	0.042600, 89.200062, 89.200062, -37.500041
	0.042700, 89.196308, 89.196308, -37.587544
	0.042800, 89.192545, 89.192545, -37.675044
	0.042900, 89.188773, 89.188773, -37.762540
	0.043000, 89.184992, 89.184992, -37.850032
	0.043100, 89.181203, 89.181203, -37.937521
	0.043200, 89.177404, 89.177404, -38.025006
	0.043300, 89.173598, 89.173598, -38.112487
	0.043400, 89.169782, 89.169782, -38.199965
	0.043500, 89.165958, 89.165958, -38.287438
	0.043600, 89.162125, 89.162125, -38.374908
	0.043700, 89.158283, 89.158283, -38.462374
	0.043800, 89.154432, 89.154432, -38.549837
	0.043900, 89.150573, 89.150573, -38.637295
	0.044000, 89.146705, 89.146705, -38.724750
	0.044100, 89.142828, 89.142828, -38.812201
	0.044200, 89.138942, 89.138942, -38.899648
	0.044300, 89.135048, 89.135048, -38.987092
	0.044400, 89.131145, 89.131145, -39.074531
	0.044500, 89.127233, 89.127233, -39.161967
	0.044600, 89.123312, 89.123312, -39.249399
	0.044700, 89.119383, 89.119383, -39.336827
	0.044800, 89.115445, 89.115445, -39.424251
	0.044900, 89.111498, 89.111498, -39.511671
	0.045000, 89.107543, 89.107543, -39.599088
	0.045100, 89.103578, 89.103578, -39.686500
	0.045200, 89.099605, 89.099605, -39.773909
	0.045300, 89.095624, 89.095624, -39.861314
	0.045400, 89.091633, 89.091633, -39.948715
	0.045500, 89.087634, 89.087634, -40.036112
	0.045600, 89.083626, 89.083626, -40.123505
