Theta: 90.000000
	0.001000,89.999559, 89.999559, -0.882899, 0.001000
	0.003000,89.996027, 89.996027, -2.648661, 0.002000
	0.007000,89.978370, 89.978370, -6.179805, 0.004000
	0.015000,89.900692, 89.900692, -13.238629, 0.008000
	0.025000,89.724235, 89.724235, -22.049952, 0.010000
	0.035000,89.459765, 89.459765, -30.839645, 0.010000
	0.045000,89.107543, 89.107543, -39.599088, 0.010000
	0.055000,88.667913, 88.667913, -48.319687, 0.010000
	0.065000,88.141307, 88.141307, -56.992888, 0.010000
	0.075000,87.528241, 87.528241, -65.610184, 0.010000
	0.085000,86.829318, 86.829318, -74.163121, 0.010000
	0.095000,86.045221, 86.045221, -82.643311, 0.010000
	0.105000,85.176722, 85.176722, -91.042434, 0.010000
	0.115000,84.224670, 84.224670, -99.352251, 0.010000
	0.125000,83.190002, 83.190002, -107.564613, 0.010000
	0.135000,82.073730, 82.073730, -115.671461, 0.010000
	0.145000,80.876951, 80.876951, -123.664846, 0.010000
	0.155000,79.600837, 79.600837, -131.536925, 0.010000
	0.165000,78.246642, 78.246642, -139.279977, 0.010000
	0.175000,76.815693, 76.815693, -146.886406, 0.010000
	0.185000,75.309394, 75.309394, -154.348752, 0.010000
	0.195000,73.729223, 73.729223, -161.659693, 0.010000
	0.205000,72.076729, 72.076729, -168.812060, 0.010000
	0.215000,70.353534, 70.353534, -175.798836, 0.010000
	0.225000,68.561327, 68.561327, -182.613167, 0.010000
	0.235000,66.701868, 66.701868, -189.248369, 0.010000
	0.245000,64.776979, 64.776979, -195.697933, 0.010000
	0.255000,62.788549, 62.788549, -201.955534, 0.010000
	0.265000,60.738528, 60.738528, -208.015033, 0.010000
	0.275000,58.628928, 58.628928, -213.870485, 0.010000
	0.285000,56.461818, 56.461818, -219.516148, 0.010000
	0.295000,54.239323, 54.239323, -224.946483, 0.010000
	0.305000,51.963624, 51.963624, -230.156163, 0.010000
	0.315000,49.636952, 49.636952, -235.140079, 0.010000
	0.325000,47.261591, 47.261591, -239.893341, 0.010000
	0.335000,44.839870, 44.839870, -244.411287, 0.010000
	0.345000,42.374165, 42.374165, -248.689485, 0.010000
	0.355000,39.866893, 39.866893, -252.723739, 0.010000
	0.365000,37.320516, 37.320516, -256.510091, 0.010000
	0.375000,34.737530, 34.737530, -260.044827, 0.010000
	0.385000,32.120470, 32.120470, -263.324480, 0.010000
	0.395000,29.471902, 29.471902, -266.345833, 0.010000
	0.405000,26.794424, 26.794424, -269.105922, 0.010000
	0.415000,24.090663, 24.090663, -271.602039, 0.010000
	0.425000,21.363272, 21.363272, -273.831737, 0.010000
	0.435000,18.614924, 18.614924, -275.792828, 0.010000
	0.445000,15.848317, 15.848317, -277.483388, 0.010000
	0.455000,13.066164, 13.066164, -278.901759, 0.010000
	0.465000,10.271194, 10.271194, -280.046550, 0.010000
	0.475000,7.466148, 7.466148, -280.916638, 0.010000
	0.485000,4.653779, 4.653779, -281.511169, 0.010000
	0.495000,1.836845, 1.836845, -281.829560, 0.010000
	0.505000,-0.981890, -0.981890, -281.871499, 0.010000
	0.515000,-3.799663, -3.799663, -281.636945, 0.010000
	0.525000,-6.613708, -6.613708, -281.126127, 0.010000
	0.535000,-9.421266, -9.421266, -280.339547, 0.010000
	0.545000,-12.219583, -12.219583, -279.277977, 0.010000
	0.555000,-15.005913, -15.005913, -277.942457, 0.010000
	0.565000,-17.777523, -17.777523, -276.334298, 0.010000
	0.575000,-20.531695, -20.531695, -274.455078, 0.010000
	0.585000,-23.265727, -23.265727, -272.306638, 0.010000
	0.595000,-25.976937, -25.976937, -269.891088, 0.010000
	0.605000,-28.662666, -28.662666, -267.210797, 0.010000
	0.615000,-31.320280, -31.320280, -264.268393, 0.010000
	0.625000,-33.947170, -33.947170, -261.066762, 0.010000
	0.635000,-36.540761, -36.540761, -257.609047, 0.010000
	0.645000,-39.098509, -39.098509, -253.898637, 0.010000
	0.655000,-41.617904, -41.617904, -249.939173, 0.010000
	0.665000,-44.096475, -44.096475, -245.734539, 0.010000
	0.675000,-46.531791, -46.531791, -241.288860, 0.010000
	0.685000,-48.921463, -48.921463, -236.606495, 0.010000
	0.695000,-51.263147, -51.263147, -231.692038, 0.010000
	0.705000,-53.554546, -53.554546, -226.550310, 0.010000
	0.715000,-55.793413, -55.793413, -221.186354, 0.010000
	0.725000,-57.977550, -57.977550, -215.605432, 0.010000
	0.735000,-60.104816, -60.104816, -209.813018, 0.010000
	0.745000,-62.173124, -62.173124, -203.814795, 0.010000
	0.755000,-64.180446, -64.180446, -197.616645, 0.010000
	0.765000,-66.124811, -66.124811, -191.224650, 0.010000
	0.775000,-68.004313, -68.004313, -184.645079, 0.010000
	0.785000,-69.817109, -69.817109, -177.884385, 0.010000
	0.795000,-71.561419, -71.561419, -170.949201, 0.010000
	0.805000,-73.235534, -73.235534, -163.846330, 0.010000
	0.815000,-74.837810, -74.837810, -156.582739, 0.010000
	0.825000,-76.366677, -76.366677, -149.165552, 0.010000
	0.835000,-77.820634, -77.820634, -141.602046, 0.010000
	0.845000,-79.198255, -79.198255, -133.899640, 0.010000
	0.855000,-80.498189, -80.498189, -126.065889, 0.010000
	0.865000,-81.719160, -81.719160, -118.108478, 0.010000
	0.875000,-82.859972, -82.859972, -110.035211, 0.010000
	0.885000,-83.919505, -83.919505, -101.854009, 0.010000
	0.895000,-84.896719, -84.896719, -93.572896, 0.010000
	0.905000,-85.790657, -85.790657, -85.199996, 0.010000
	0.915000,-86.600440, -86.600440, -76.743522, 0.010000
	0.925000,-87.325276, -87.325276, -68.211768, 0.010000
	0.935000,-87.964453, -87.964453, -59.613103, 0.010000
	0.945000,-88.517343, -88.517343, -50.955964, 0.010000
	0.955000,-88.983405, -88.983405, -42.248840, 0.010000
	0.965000,-89.362182, -89.362182, -33.500274, 0.010000
	0.975000,-89.653301, -89.653301, -24.718847, 0.010000
	0.985000,-89.856478, -89.856478, -15.913172, 0.010000
	0.995000,-89.971513, -89.971513, -7.091888, 0.010000
	1.005000,-89.998293, -89.998293, 1.736353, 0.010000
	1.015000,-89.936791, -89.936791, 10.562890, 0.010000
	1.025000,-89.787069, -89.787069, 19.379066, 0.010000
	1.035000,-89.549273, -89.549273, 28.176233, 0.010000
	1.045000,-89.223637, -89.223637, 36.945761, 0.010000
	1.055000,-88.810479, -88.810479, 45.679049, 0.010000
	1.065000,-88.310205, -88.310205, 54.367529, 0.010000
	1.075000,-87.723306, -87.723306, 63.002678, 0.010000
	1.085000,-87.050358, -87.050358, 71.576027, 0.010000
	1.095000,-86.292020, -86.292020, 80.079166, 0.010000
	1.105000,-85.449036, -85.449036, 88.503754, 0.010000
	1.115000,-84.522234, -84.522234, 96.841526, 0.010000
	1.125000,-83.512522, -83.512522, 105.084305, 0.010000
	1.135000,-82.420892, -82.420892, 113.224004, 0.010000
	1.145000,-81.248412, -81.248412, 121.252640, 0.010000
	1.155000,-79.996235, -79.996235, 129.162336, 0.010000
	1.165000,-78.665588, -78.665588, 136.945335, 0.010000
	1.175000,-77.257776, -77.257776, 144.594001, 0.010000
	1.185000,-75.774181, -75.774181, 152.100832, 0.010000
	1.195000,-74.216257, -74.216257, 159.458465, 0.010000
	1.205000,-72.585533, -72.585533, 166.659681, 0.010000
	1.215000,-70.883608, -70.883608, 173.697418, 0.010000
	1.225000,-69.112153, -69.112153, 180.564772, 0.010000
	1.235000,-67.272903, -67.272903, 187.255006, 0.010000
	1.245000,-65.367665, -65.367665, 193.761557, 0.010000
	1.255000,-63.398306, -63.398306, 200.078045, 0.010000
	1.265000,-61.366758, -61.366758, 206.198271, 0.010000
	1.275000,-59.275015, -59.275015, 212.116234, 0.010000
	1.285000,-57.125127, -57.125127, 217.826128, 0.010000
	1.295000,-54.919204, -54.919204, 223.322352, 0.010000
	1.305000,-52.659410, -52.659410, 228.599514, 0.010000
	1.315000,-50.347961, -50.347961, 233.652439, 0.010000
	1.325000,-47.987125, -47.987125, 238.476169, 0.010000
	1.335000,-45.579218, -45.579218, 243.065973, 0.010000
	1.345000,-43.126601, -43.126601, 247.417350, 0.010000
	1.355000,-40.631680, -40.631680, 251.526029, 0.010000
	1.365000,-38.096903, -38.096903, 255.387982, 0.010000
	1.375000,-35.524755, -35.524755, 258.999419, 0.010000
	1.385000,-32.917761, -32.917761, 262.356799, 0.010000
	1.395000,-30.278477, -30.278477, 265.456828, 0.010000
	1.405000,-27.609493, -27.609493, 268.296465, 0.010000
	1.415000,-24.913425, -24.913425, 270.872925, 0.010000
	1.425000,-22.192920, -22.192920, 273.183680, 0.010000
	1.435000,-19.450645, -19.450645, 275.226464, 0.010000
	1.445000,-16.689290, -16.689290, 276.999273, 0.010000
	1.455000,-13.911565, -13.911565, 278.500367, 0.010000
	1.465000,-11.120194, -11.120194, 279.728275, 0.010000
	1.475000,-8.317914, -8.317914, 280.681793, 0.010000
	1.485000,-5.507476, -5.507476, 281.359983, 0.010000
	1.495000,-2.691635, -2.691635, 281.762183, 0.010000
	1.505000,0.126847, 0.126847, 281.887996, 0.010000
	1.515000,2.945204, 2.945204, 281.737299, 0.010000
	1.525000,5.760671, 5.760671, 281.310241, 0.010000
	1.535000,8.570489, 8.570489, 280.607240, 0.010000
	1.545000,11.371899, 11.371899, 279.628986, 0.010000
	1.555000,14.162154, 14.162154, 278.376439, 0.010000
	1.565000,16.938517, 16.938517, 276.850826, 0.010000
	1.575000,19.698265, 19.698265, 275.053645, 0.010000
	1.585000,22.438691, 22.438691, 272.986658, 0.010000
	1.595000,25.157106, 25.157106, 270.651894, 0.010000
	1.605000,27.850844, 27.850844, 268.051641, 0.010000
	1.615000,30.517262, 30.517262, 265.188451, 0.010000
	1.625000,33.153746, 33.153746, 262.065133, 0.010000
	1.635000,35.757708, 35.757708, 258.684750, 0.010000
	1.645000,38.326595, 38.326595, 255.050618, 0.010000
	1.655000,40.857886, 40.857886, 251.166302, 0.010000
	1.665000,43.349099, 43.349099, 247.035611, 0.010000
	1.675000,45.797791, 45.797791, 242.662599, 0.010000
	1.685000,48.201558, 48.201558, 238.051554, 0.010000
	1.695000,50.558043, 50.558043, 233.206999, 0.010000
	1.705000,52.864935, 52.864935, 228.133687, 0.010000
	1.715000,55.119971, 55.119971, 222.836595, 0.010000
	1.725000,57.320939, 57.320939, 217.320917, 0.010000
	1.735000,59.465679, 59.465679, 211.592065, 0.010000
	1.745000,61.552088, 61.552088, 205.655658, 0.010000
	1.755000,63.578120, 63.578120, 199.517520, 0.010000
	1.765000,65.541786, 65.541786, 193.183671, 0.010000
	1.775000,67.441161, 67.441161, 186.660324, 0.010000
	1.785000,69.274382, 69.274382, 179.953878, 0.010000
	1.795000,71.039651, 71.039650, 173.070912, 0.010000
	1.805000,72.735235, 72.735235, 166.018178, 0.010000
	1.815000,74.359471, 74.359471, 158.802592, 0.010000
	1.825000,75.910767, 75.910767, 151.431235, 0.010000
	1.835000,77.387601, 77.387601, 143.911335, 0.010000
	1.845000,78.788523, 78.788523, 136.250270, 0.010000
	1.855000,80.112161, 80.112161, 128.455554, 0.010000
	1.865000,81.357214, 81.357214, 120.534833, 0.010000
	1.875000,82.522463, 82.522463, 112.495878, 0.010000
	1.885000,83.606764, 83.606764, 104.346573, 0.010000
	1.895000,84.609053, 84.609053, 96.094913, 0.010000
	1.905000,85.528348, 85.528348, 87.748991, 0.010000
	1.915000,86.363746, 86.363746, 79.316994, 0.010000
	1.925000,87.114429, 87.114429, 70.807194, 0.010000
	1.935000,87.779659, 87.779659, 62.227938, 0.010000
	1.945000,88.358784, 88.358784, 53.587641, 0.010000
	1.955000,88.851236, 88.851236, 44.894779, 0.010000
	1.965000,89.256533, 89.256533, 36.157879, 0.010000
	1.975000,89.574276, 89.574276, 27.385510, 0.010000
	1.985000,89.804153, 89.804153, 18.586279, 0.010000
	1.995000,89.945940, 89.945940, 9.768816, 0.010000
	2.005000,89.999498, 89.999498, 0.941771, 0.010000
